# x, y, theta, v_l, v_r
49.98, 250.12, 1.820, 0.00, 24.93
49.92, 250.36, 1.820, 24.93, 24.93
49.86, 250.60, 1.820, 24.93, 24.93
49.80, 250.84, 1.820, 24.93, 24.93
49.74, 251.09, 1.820, 24.93, 24.93
49.68, 251.33, 1.820, 24.93, 24.93
49.62, 251.57, 1.820, 24.93, 24.93
49.55, 251.81, 1.820, 24.93, 24.93
49.49, 252.05, 1.820, 24.93, 24.93
49.43, 252.29, 1.820, 24.93, 24.93
49.37, 252.54, 1.820, 24.93, 24.93
49.31, 252.78, 1.820, 24.93, 24.93
49.25, 253.02, 1.820, 24.93, 24.93
49.19, 253.26, 1.820, 24.93, 24.93
49.12, 253.50, 1.820, 24.93, 24.93
49.06, 253.74, 1.820, 24.93, 24.93
49.00, 253.98, 1.820, 24.93, 24.93
48.94, 254.23, 1.820, 24.93, 24.93
48.88, 254.47, 1.820, 24.93, 24.93
48.82, 254.71, 1.820, 24.93, 24.93
48.75, 254.95, 1.820, 24.93, 24.93
48.69, 255.19, 1.820, 24.93, 24.93
48.63, 255.43, 1.820, 24.93, 24.93
48.57, 255.68, 1.820, 24.93, 24.93
48.51, 255.92, 1.820, 24.93, 24.93
48.45, 256.16, 1.820, 24.93, 24.93
48.39, 256.40, 1.820, 24.93, 24.93
48.32, 256.64, 1.820, 24.93, 24.93
48.26, 256.88, 1.820, 24.93, 24.93
48.20, 257.12, 1.820, 24.93, 24.93
48.14, 257.37, 1.820, 24.93, 24.93
48.08, 257.61, 1.820, 24.93, 24.93
48.02, 257.85, 1.820, 24.93, 24.93
47.96, 258.09, 1.820, 24.93, 24.93
47.89, 258.33, 1.820, 24.93, 24.93
47.83, 258.57, 1.820, 24.93, 24.93
47.77, 258.82, 1.820, 24.93, 24.93
47.71, 259.06, 1.820, 24.93, 24.93
47.65, 259.30, 1.820, 24.93, 24.93
47.59, 259.54, 1.820, 24.93, 24.93
47.52, 259.78, 1.820, 24.93, 24.93
47.46, 260.02, 1.820, 24.93, 24.93
47.40, 260.27, 1.820, 24.93, 24.93
47.34, 260.51, 1.820, 24.93, 24.93
47.28, 260.75, 1.820, 24.93, 24.93
47.22, 260.99, 1.820, 24.93, 24.93
47.16, 261.23, 1.820, 24.93, 24.93
47.09, 261.47, 1.820, 24.93, 24.93
47.03, 261.71, 1.820, 24.93, 24.93
46.97, 261.96, 1.820, 24.93, 24.93
46.91, 262.20, 1.820, 24.93, 24.93
46.85, 262.44, 1.820, 24.93, 24.93
46.79, 262.68, 1.820, 24.93, 24.93
46.73, 262.92, 1.820, 24.93, 24.93
46.66, 263.16, 1.820, 24.93, 24.93
46.60, 263.41, 1.820, 24.93, 24.93
46.54, 263.65, 1.820, 24.93, 24.93
46.48, 263.89, 1.820, 24.93, 24.93
46.42, 264.13, 1.820, 24.93, 24.93
46.36, 264.37, 1.820, 24.93, 24.93
46.29, 264.61, 1.820, 24.93, 24.93
46.23, 264.85, 1.820, 24.93, 24.93
46.17, 265.10, 1.820, 24.93, 24.93
46.11, 265.34, 1.820, 24.93, 24.93
46.05, 265.58, 1.820, 24.93, 24.93
45.99, 265.82, 1.820, 24.93, 24.93
45.93, 266.06, 1.820, 24.93, 24.93
45.86, 266.30, 1.820, 24.93, 24.93
45.80, 266.55, 1.820, 24.93, 24.93
45.74, 266.79, 1.820, 24.93, 24.93
45.68, 267.03, 1.820, 24.93, 24.93
45.62, 267.27, 1.820, 24.93, 24.93
45.56, 267.51, 1.820, 24.93, 24.93
45.50, 267.75, 1.820, 24.93, 24.93
45.43, 268.00, 1.820, 24.93, 24.93
45.37, 268.24, 1.820, 24.93, 24.93
45.31, 268.48, 1.820, 24.93, 24.93
45.25, 268.72, 1.820, 24.93, 24.93
45.19, 268.96, 1.820, 24.93, 24.93
45.13, 269.20, 1.820, 24.93, 24.93
45.07, 269.44, 1.820, 24.93, 24.93
45.00, 269.69, 1.820, 24.93, 24.93
44.94, 269.93, 1.820, 24.93, 24.93
44.88, 270.17, 1.820, 24.93, 24.93
44.82, 270.41, 1.820, 24.93, 24.93
44.76, 270.65, 1.820, 24.93, 24.93
44.70, 270.89, 1.820, 24.93, 24.93
44.63, 271.14, 1.820, 24.93, 24.93
44.57, 271.38, 1.820, 24.93, 24.93
44.51, 271.62, 1.820, 24.93, 24.93
44.45, 271.86, 1.820, 24.93, 24.93
44.39, 272.10, 1.820, 24.93, 24.93
44.33, 272.34, 1.820, 24.93, 24.93
44.27, 272.58, 1.820, 24.93, 24.93
44.20, 272.83, 1.820, 24.93, 24.93
44.14, 273.07, 1.820, 24.93, 24.93
44.08, 273.31, 1.820, 24.93, 24.93
44.02, 273.55, 1.820, 24.93, 24.93
43.96, 273.79, 1.820, 24.93, 24.93
43.90, 274.03, 1.820, 24.93, 24.93
43.84, 274.28, 1.820, 24.93, 24.93
43.77, 274.52, 1.820, 24.93, 24.93
43.71, 274.76, 1.820, 24.93, 24.93
43.65, 275.00, 1.820, 24.93, 24.93
43.59, 275.24, 1.820, 24.93, 24.93
43.53, 275.48, 1.820, 24.93, 24.93
43.47, 275.73, 1.820, 24.93, 24.93
43.40, 275.97, 1.820, 24.93, 24.93
43.34, 276.21, 1.820, 24.93, 24.93
43.28, 276.45, 1.820, 24.93, 24.93
43.22, 276.69, 1.820, 24.93, 24.93
43.16, 276.93, 1.820, 24.93, 24.93
43.10, 277.17, 1.820, 24.93, 24.93
43.04, 277.42, 1.820, 24.93, 24.93
42.97, 277.66, 1.820, 24.93, 24.93
42.91, 277.90, 1.820, 24.93, 24.93
42.85, 278.14, 1.820, 24.93, 24.93
42.79, 278.38, 1.820, 24.93, 24.93
42.73, 278.62, 1.820, 24.93, 24.93
42.67, 278.87, 1.820, 24.93, 24.93
42.61, 279.11, 1.820, 24.93, 24.93
42.54, 279.35, 1.820, 24.93, 24.93
42.48, 279.59, 1.820, 24.93, 24.93
42.42, 279.83, 1.820, 24.93, 24.93
42.36, 280.07, 1.820, 24.93, 24.93
42.30, 280.31, 1.820, 24.93, 24.93
42.24, 280.56, 1.820, 24.93, 24.93
42.17, 280.80, 1.820, 24.93, 24.93
42.11, 281.04, 1.820, 24.93, 24.93
42.05, 281.28, 1.820, 24.93, 24.93
41.99, 281.52, 1.820, 24.93, 24.93
41.93, 281.76, 1.820, 24.93, 24.93
41.87, 282.01, 1.820, 24.93, 24.93
41.81, 282.25, 1.820, 24.93, 24.93
41.74, 282.49, 1.820, 24.93, 24.93
41.68, 282.73, 1.820, 24.93, 24.93
41.62, 282.97, 1.820, 24.93, 24.93
41.56, 283.21, 1.820, 24.93, 24.93
41.50, 283.46, 1.820, 24.93, 24.93
41.44, 283.70, 1.820, 24.93, 24.93
41.38, 283.94, 1.820, 24.93, 24.93
41.31, 284.18, 1.820, 24.93, 24.93
41.25, 284.42, 1.820, 24.93, 24.93
41.19, 284.66, 1.820, 24.93, 24.93
41.13, 284.90, 1.820, 24.93, 24.93
41.07, 285.15, 1.820, 24.93, 24.93
41.01, 285.39, 1.820, 24.93, 24.93
40.95, 285.63, 1.820, 24.93, 24.93
40.88, 285.87, 1.820, 24.93, 24.93
40.82, 286.11, 1.820, 24.93, 24.93
40.76, 286.35, 1.820, 24.93, 24.93
40.70, 286.60, 1.820, 24.93, 24.93
40.64, 286.84, 1.820, 24.93, 24.93
40.58, 287.08, 1.820, 24.93, 24.93
40.51, 287.32, 1.820, 24.93, 24.93
40.45, 287.56, 1.820, 24.93, 24.93
40.39, 287.80, 1.820, 24.93, 24.93
40.33, 288.04, 1.820, 24.93, 24.93
40.27, 288.29, 1.820, 24.93, 24.93
40.21, 288.53, 1.820, 24.93, 24.93
40.15, 288.77, 1.820, 24.93, 24.93
40.08, 289.01, 1.820, 24.93, 24.93
40.02, 289.25, 1.820, 24.93, 24.93
39.96, 289.49, 1.820, 24.93, 24.93
39.90, 289.74, 1.820, 24.93, 24.93
39.84, 289.98, 1.820, 24.93, 24.93
39.78, 290.22, 1.820, 24.93, 24.93
39.72, 290.46, 1.820, 24.93, 24.93
39.65, 290.70, 1.820, 24.93, 24.93
39.59, 290.94, 1.820, 24.93, 24.93
39.53, 291.19, 1.820, 24.93, 24.93
39.47, 291.43, 1.820, 24.93, 24.93
39.41, 291.67, 1.820, 24.93, 24.93
39.35, 291.91, 1.820, 24.93, 24.93
39.28, 292.15, 1.820, 24.93, 24.93
39.22, 292.39, 1.820, 24.93, 24.93
39.16, 292.63, 1.820, 24.93, 24.93
39.10, 292.88, 1.820, 24.93, 24.93
39.04, 293.12, 1.820, 24.93, 24.93
38.98, 293.36, 1.820, 24.93, 24.93
38.92, 293.60, 1.820, 24.93, 24.93
38.85, 293.84, 1.820, 24.93, 24.93
38.79, 294.08, 1.820, 24.93, 24.93
38.73, 294.33, 1.820, 24.93, 24.93
38.67, 294.57, 1.820, 24.93, 24.93
38.61, 294.81, 1.820, 24.93, 24.93
38.55, 295.05, 1.820, 24.93, 24.93
38.49, 295.29, 1.820, 24.93, 24.93
38.42, 295.53, 1.820, 24.93, 24.93
38.36, 295.77, 1.820, 24.93, 24.93
38.30, 296.02, 1.820, 24.93, 24.93
38.24, 296.26, 1.820, 24.93, 24.93
38.18, 296.50, 1.820, 24.93, 24.93
38.12, 296.74, 1.820, 24.93, 24.93
38.05, 296.98, 1.820, 24.93, 24.93
37.99, 297.22, 1.820, 24.93, 24.93
37.93, 297.47, 1.820, 24.93, 24.93
37.87, 297.71, 1.820, 24.93, 24.93
37.81, 297.95, 1.820, 24.93, 24.93
37.75, 298.19, 1.820, 24.93, 24.93
37.69, 298.43, 1.820, 24.93, 24.93
37.62, 298.67, 1.820, 24.93, 24.93
37.56, 298.92, 1.820, 24.93, 24.93
37.50, 299.16, 1.820, 24.93, 24.93
37.44, 299.40, 1.820, 24.93, 24.93
37.38, 299.64, 1.820, 24.93, 24.93
37.32, 299.88, 1.820, 24.93, 24.93
37.26, 300.12, 1.820, 24.93, 24.93
37.19, 300.36, 1.820, 24.93, 24.93
37.13, 300.61, 1.820, 24.93, 24.93
37.07, 300.85, 1.820, 24.93, 24.93
37.01, 301.09, 1.820, 24.93, 24.93
36.95, 301.33, 1.820, 24.93, 24.93
36.89, 301.57, 1.820, 24.93, 24.93
36.83, 301.81, 1.820, 24.93, 24.93
36.76, 302.06, 1.820, 24.93, 24.93
36.70, 302.30, 1.820, 24.93, 24.93
36.64, 302.54, 1.820, 24.93, 24.93
36.58, 302.78, 1.820, 24.93, 24.93
36.52, 303.02, 1.820, 24.93, 24.93
36.46, 303.26, 1.820, 24.93, 24.93
36.39, 303.50, 1.820, 24.93, 24.93
36.33, 303.75, 1.820, 24.93, 24.93
36.27, 303.99, 1.820, 24.93, 24.93
36.21, 304.23, 1.820, 24.93, 24.93
36.15, 304.47, 1.820, 24.93, 24.93
36.09, 304.71, 1.820, 24.93, 24.93
36.03, 304.95, 1.820, 24.93, 24.93
35.96, 305.20, 1.820, 24.93, 24.93
35.90, 305.44, 1.820, 24.93, 24.93
35.84, 305.68, 1.820, 24.93, 24.93
35.78, 305.92, 1.820, 24.93, 24.93
35.72, 306.16, 1.820, 24.93, 24.93
35.66, 306.40, 1.820, 24.93, 24.93
35.60, 306.65, 1.820, 24.93, 24.93
35.53, 306.89, 1.820, 24.93, 24.93
35.47, 307.13, 1.820, 24.93, 24.93
35.41, 307.37, 1.820, 24.93, 24.93
35.35, 307.61, 1.820, 24.93, 24.93
35.29, 307.85, 1.820, 24.93, 24.93
35.23, 308.09, 1.820, 24.93, 24.93
35.16, 308.34, 1.820, 24.93, 24.93
35.10, 308.58, 1.820, 24.93, 24.93
35.04, 308.82, 1.820, 24.93, 24.93
34.98, 309.06, 1.820, 24.93, 24.93
34.92, 309.30, 1.820, 24.93, 24.93
34.86, 309.54, 1.820, 24.93, 24.93
34.80, 309.79, 1.820, 24.93, 24.93
34.73, 310.03, 1.820, 24.93, 24.93
34.67, 310.27, 1.820, 24.93, 24.93
34.61, 310.51, 1.820, 24.93, 24.93
34.55, 310.75, 1.820, 24.93, 24.93
34.49, 310.99, 1.820, 24.93, 24.93
34.43, 311.23, 1.820, 24.93, 24.93
34.37, 311.48, 1.820, 24.93, 24.93
34.30, 311.72, 1.820, 24.93, 24.93
34.24, 311.96, 1.820, 24.93, 24.93
34.18, 312.20, 1.820, 24.93, 24.93
34.12, 312.44, 1.820, 24.93, 24.93
34.06, 312.68, 1.820, 24.93, 24.93
34.00, 312.93, 1.820, 24.93, 24.93
33.93, 313.17, 1.820, 24.93, 24.93
33.87, 313.41, 1.820, 24.93, 24.93
33.81, 313.65, 1.820, 24.93, 24.93
33.75, 313.89, 1.820, 24.93, 24.93
33.69, 314.13, 1.820, 24.93, 24.93
33.63, 314.38, 1.820, 24.93, 24.93
33.57, 314.62, 1.820, 24.93, 24.93
33.50, 314.86, 1.820, 24.93, 24.93
33.44, 315.10, 1.820, 24.93, 24.93
33.38, 315.34, 1.820, 24.93, 24.93
33.32, 315.58, 1.820, 24.93, 24.93
33.26, 315.82, 1.820, 24.93, 24.93
33.20, 316.07, 1.820, 24.93, 24.93
33.14, 316.31, 1.820, 24.93, 24.93
33.07, 316.55, 1.820, 24.93, 24.93
33.01, 316.79, 1.820, 24.93, 24.93
32.95, 317.03, 1.820, 24.93, 24.93
32.89, 317.27, 1.820, 24.93, 24.93
32.83, 317.52, 1.820, 24.93, 24.93
32.77, 317.76, 1.820, 24.93, 24.93
32.71, 318.00, 1.820, 24.93, 24.93
32.64, 318.24, 1.820, 24.93, 24.93
32.58, 318.48, 1.820, 24.93, 24.93
32.52, 318.72, 1.820, 24.93, 24.93
32.46, 318.96, 1.820, 24.93, 24.93
32.40, 319.21, 1.820, 24.93, 24.93
32.34, 319.45, 1.820, 24.93, 24.93
32.27, 319.69, 1.820, 24.93, 24.93
32.21, 319.93, 1.820, 24.93, 24.93
32.15, 320.17, 1.820, 24.93, 24.93
32.09, 320.41, 1.820, 24.93, 24.93
32.03, 320.66, 1.820, 24.93, 24.93
31.97, 320.90, 1.820, 24.93, 24.93
31.91, 321.14, 1.820, 24.93, 24.93
31.84, 321.38, 1.820, 24.93, 24.93
31.78, 321.62, 1.820, 24.93, 24.93
31.72, 321.86, 1.820, 24.93, 24.93
31.66, 322.11, 1.820, 24.93, 24.93
31.60, 322.35, 1.820, 24.93, 24.93
31.54, 322.59, 1.820, 24.93, 24.93
31.48, 322.83, 1.820, 24.93, 24.93
31.41, 323.07, 1.820, 24.93, 24.93
31.35, 323.31, 1.820, 24.93, 24.93
31.29, 323.55, 1.820, 24.93, 24.93
31.23, 323.80, 1.820, 24.93, 24.93
31.17, 324.04, 1.820, 24.93, 24.93
31.11, 324.28, 1.820, 24.93, 24.93
31.04, 324.52, 1.820, 24.93, 24.93
30.98, 324.76, 1.820, 24.93, 24.93
30.92, 325.00, 1.820, 24.93, 24.93
30.86, 325.25, 1.820, 24.93, 24.93
30.80, 325.49, 1.820, 24.93, 24.93
30.74, 325.73, 1.820, 24.93, 24.93
30.68, 325.97, 1.820, 24.93, 24.93
30.61, 326.21, 1.820, 24.93, 24.93
30.55, 326.45, 1.820, 24.93, 24.93
30.49, 326.69, 1.820, 24.93, 24.93
30.43, 326.94, 1.820, 24.93, 24.93
30.37, 327.18, 1.820, 24.93, 24.93
30.31, 327.42, 1.820, 24.93, 24.93
30.25, 327.66, 1.820, 24.93, 24.93
30.18, 327.90, 1.820, 24.93, 24.93
30.12, 328.14, 1.820, 24.93, 24.93
30.06, 328.39, 1.820, 24.93, 24.93
30.00, 328.63, 1.820, 24.93, 24.93
29.94, 328.87, 1.820, 24.93, 24.93
29.88, 329.11, 1.820, 24.93, 24.93
29.81, 329.35, 1.820, 24.93, 24.93
29.75, 329.59, 1.820, 24.93, 24.93
29.69, 329.84, 1.820, 24.93, 24.93
29.63, 330.08, 1.820, 24.93, 24.93
29.57, 330.32, 1.820, 24.93, 24.93
29.51, 330.56, 1.820, 24.93, 24.93
29.45, 330.80, 1.820, 24.93, 24.93
29.38, 331.04, 1.820, 24.93, 24.93
29.32, 331.28, 1.820, 24.93, 24.93
29.26, 331.53, 1.820, 24.93, 24.93
29.20, 331.77, 1.820, 24.93, 24.93
29.14, 332.01, 1.820, 24.93, 24.93
29.08, 332.25, 1.820, 24.93, 24.93
29.02, 332.49, 1.820, 24.93, 24.93
28.95, 332.73, 1.820, 24.93, 24.93
28.89, 332.98, 1.820, 24.93, 24.93
28.83, 333.22, 1.820, 24.93, 24.93
28.77, 333.46, 1.820, 24.93, 24.93
28.71, 333.70, 1.820, 24.93, 24.93
28.65, 333.94, 1.820, 24.93, 24.93
28.59, 334.18, 1.820, 24.93, 24.93
28.52, 334.42, 1.820, 24.93, 24.93
28.46, 334.67, 1.820, 24.93, 24.93
28.40, 334.91, 1.820, 24.93, 24.93
28.34, 335.15, 1.820, 24.93, 24.93
28.28, 335.39, 1.820, 24.93, 24.93
28.22, 335.63, 1.820, 24.93, 24.93
28.15, 335.87, 1.820, 24.93, 24.93
28.09, 336.12, 1.820, 24.93, 24.93
28.03, 336.36, 1.820, 24.93, 24.93
27.97, 336.60, 1.820, 24.93, 24.93
27.91, 336.84, 1.820, 24.93, 24.93
27.85, 337.08, 1.820, 24.93, 24.93
27.79, 337.32, 1.820, 24.93, 24.93
27.72, 337.57, 1.820, 24.93, 24.93
27.66, 337.81, 1.820, 24.93, 24.93
27.60, 338.05, 1.820, 24.93, 24.93
27.54, 338.29, 1.820, 24.93, 24.93
27.48, 338.53, 1.820, 24.93, 24.93
27.42, 338.77, 1.820, 24.93, 24.93
27.36, 339.01, 1.820, 24.93, 24.93
27.29, 339.26, 1.820, 24.93, 24.93
27.23, 339.50, 1.820, 24.93, 24.93
27.17, 339.74, 1.820, 24.93, 24.93
27.11, 339.98, 1.820, 24.93, 24.93
27.05, 340.22, 1.820, 24.93, 24.93
26.99, 340.46, 1.820, 24.93, 24.93
26.92, 340.71, 1.820, 24.93, 24.93
26.86, 340.95, 1.820, 24.93, 24.93
26.80, 341.19, 1.820, 24.93, 24.93
26.74, 341.43, 1.820, 24.93, 24.93
26.68, 341.67, 1.820, 24.93, 24.93
26.62, 341.91, 1.820, 24.93, 24.93
26.56, 342.16, 1.820, 24.93, 24.93
26.49, 342.40, 1.820, 24.93, 24.93
26.43, 342.64, 1.820, 24.93, 24.93
26.37, 342.88, 1.820, 24.93, 24.93
26.31, 343.12, 1.820, 24.93, 24.93
26.25, 343.36, 1.820, 24.93, 24.93
26.19, 343.60, 1.820, 24.93, 24.93
26.13, 343.85, 1.820, 24.93, 24.93
26.06, 344.09, 1.820, 24.93, 24.93
26.00, 344.33, 1.820, 24.93, 24.93
25.94, 344.57, 1.820, 24.93, 24.93
25.88, 344.81, 1.820, 24.93, 24.93
25.82, 345.05, 1.820, 24.93, 24.93
25.76, 345.30, 1.820, 24.93, 24.93
25.69, 345.54, 1.820, 24.93, 24.93
25.63, 345.78, 1.820, 24.93, 24.93
25.57, 346.02, 1.820, 24.93, 24.93
25.51, 346.26, 1.820, 24.93, 24.93
25.45, 346.50, 1.820, 24.93, 24.93
25.39, 346.74, 1.820, 24.93, 24.93
25.33, 346.99, 1.820, 24.93, 24.93
25.26, 347.23, 1.820, 24.93, 24.93
25.20, 347.47, 1.820, 24.93, 24.93
25.14, 347.71, 1.820, 24.93, 24.93
25.08, 347.95, 1.820, 24.93, 24.93
25.02, 348.19, 1.820, 24.93, 24.93
24.96, 348.44, 1.820, 24.93, 24.93
24.90, 348.68, 1.820, 24.93, 24.93
24.83, 348.92, 1.820, 24.93, 24.93
24.77, 349.16, 1.820, 24.93, 24.93
24.71, 349.40, 1.820, 24.93, 24.93
24.65, 349.64, 1.820, 24.93, 24.93
24.59, 349.89, 1.820, 24.93, 24.93
24.53, 350.13, 1.820, 24.93, 24.93
24.47, 350.37, 1.820, 24.93, 24.93
24.40, 350.61, 1.820, 24.93, 24.93
24.34, 350.85, 1.820, 24.93, 24.93
24.28, 351.09, 1.820, 24.93, 24.93
24.22, 351.33, 1.820, 24.93, 24.93
24.16, 351.58, 1.820, 24.93, 24.93
24.10, 351.82, 1.820, 24.93, 24.93
24.03, 352.06, 1.820, 24.93, 24.93
23.97, 352.30, 1.820, 24.93, 24.93
23.91, 352.54, 1.820, 24.93, 24.93
23.85, 352.78, 1.820, 24.93, 24.93
23.79, 353.03, 1.820, 24.93, 24.93
23.73, 353.27, 1.820, 24.93, 24.93
23.67, 353.51, 1.820, 24.93, 24.93
23.60, 353.75, 1.820, 24.93, 24.93
23.54, 353.99, 1.820, 24.93, 24.93
23.48, 354.23, 1.820, 24.93, 24.93
23.42, 354.47, 1.820, 24.93, 24.93
23.36, 354.72, 1.820, 24.93, 24.93
23.30, 354.96, 1.820, 24.93, 24.93
23.24, 355.20, 1.820, 24.93, 24.93
23.17, 355.44, 1.820, 24.93, 24.93
23.11, 355.68, 1.820, 24.93, 24.93
23.05, 355.92, 1.820, 24.93, 24.93
22.99, 356.17, 1.820, 24.93, 24.93
22.93, 356.41, 1.820, 24.93, 24.93
22.87, 356.65, 1.820, 24.93, 24.93
22.80, 356.89, 1.820, 24.93, 24.93
22.74, 357.13, 1.820, 24.93, 24.93
22.68, 357.37, 1.820, 24.93, 24.93
22.62, 357.62, 1.820, 24.93, 24.93
22.56, 357.86, 1.820, 24.93, 24.93
22.50, 358.10, 1.820, 24.93, 24.93
22.44, 358.34, 1.820, 24.93, 24.93
22.37, 358.58, 1.820, 24.93, 24.93
22.31, 358.82, 1.820, 24.93, 24.93
22.25, 359.06, 1.820, 24.93, 24.93
22.19, 359.31, 1.820, 24.93, 24.93
22.13, 359.55, 1.820, 24.93, 24.93
22.07, 359.79, 1.820, 24.93, 24.93
22.01, 360.03, 1.820, 24.93, 24.93
21.94, 360.27, 1.820, 24.93, 24.93
21.88, 360.51, 1.820, 24.93, 24.93
21.82, 360.76, 1.820, 24.93, 24.93
21.76, 361.00, 1.820, 24.93, 24.93
21.70, 361.24, 1.820, 24.93, 24.93
21.64, 361.48, 1.820, 24.93, 24.93
21.57, 361.72, 1.820, 24.93, 24.93
21.51, 361.96, 1.820, 24.93, 24.93
21.45, 362.20, 1.820, 24.93, 24.93
21.39, 362.45, 1.820, 24.93, 24.93
21.33, 362.69, 1.820, 24.93, 24.93
21.27, 362.93, 1.820, 24.93, 24.93
21.21, 363.17, 1.820, 24.93, 24.93
21.14, 363.41, 1.820, 24.93, 24.93
21.08, 363.65, 1.820, 24.93, 24.93
21.02, 363.90, 1.820, 24.93, 24.93
20.96, 364.14, 1.820, 24.93, 24.93
20.90, 364.38, 1.820, 24.93, 24.93
20.84, 364.62, 1.820, 24.93, 24.93
20.78, 364.86, 1.820, 24.93, 24.93
20.71, 365.10, 1.820, 24.93, 24.93
20.65, 365.35, 1.820, 24.93, 24.93
20.59, 365.59, 1.820, 24.93, 24.93
20.53, 365.83, 1.820, 24.93, 24.93
20.47, 366.07, 1.820, 24.93, 24.93
20.41, 366.31, 1.820, 24.93, 24.93
20.35, 366.55, 1.820, 24.93, 24.93
20.28, 366.79, 1.820, 24.93, 24.93
20.22, 367.04, 1.820, 24.93, 24.93
20.16, 367.28, 1.820, 24.93, 24.93
20.10, 367.52, 1.820, 24.93, 24.93
20.04, 367.76, 1.820, 24.93, 24.93
19.98, 368.00, 1.820, 24.93, 24.93
19.91, 368.24, 1.820, 24.93, 24.93
19.85, 368.49, 1.820, 24.93, 24.93
19.79, 368.73, 1.820, 24.93, 24.93
19.73, 368.97, 1.820, 24.93, 24.93
19.67, 369.21, 1.820, 24.93, 24.93
19.61, 369.45, 1.820, 24.93, 24.93
19.55, 369.69, 1.820, 24.93, 24.93
19.48, 369.93, 1.820, 24.93, 24.93
19.42, 370.18, 1.820, 24.93, 24.93
19.36, 370.42, 1.820, 24.93, 24.93
19.30, 370.66, 1.820, 24.93, 24.93
19.24, 370.90, 1.820, 24.93, 24.93
19.18, 371.14, 1.820, 24.93, 24.93
19.12, 371.38, 1.820, 24.93, 24.93
19.05, 371.63, 1.820, 24.93, 24.93
18.99, 371.87, 1.820, 24.93, 24.93
18.93, 372.11, 1.820, 24.93, 24.93
18.87, 372.35, 1.820, 24.93, 24.93
18.81, 372.59, 1.820, 24.93, 24.93
18.75, 372.83, 1.820, 24.93, 24.93
18.68, 373.08, 1.820, 24.93, 24.93
18.62, 373.32, 1.820, 24.93, 24.93
18.56, 373.56, 1.820, 24.93, 24.93
18.50, 373.80, 1.820, 24.93, 24.93
18.44, 374.04, 1.820, 24.93, 24.93
18.38, 374.28, 1.820, 24.93, 24.93
18.32, 374.52, 1.820, 24.93, 24.93
18.25, 374.77, 1.820, 24.93, 24.93
18.19, 375.01, 1.820, 24.93, 24.93
18.13, 375.25, 1.820, 24.93, 24.93
18.07, 375.49, 1.820, 24.93, 24.93
18.01, 375.73, 1.820, 24.93, 24.93
17.95, 375.97, 1.820, 24.93, 24.93
17.89, 376.22, 1.820, 24.93, 24.93
17.82, 376.46, 1.820, 24.93, 24.93
17.76, 376.70, 1.820, 24.93, 24.93
17.70, 376.94, 1.820, 24.93, 24.93
17.64, 377.18, 1.820, 24.93, 24.93
17.58, 377.42, 1.820, 24.93, 24.93
17.52, 377.66, 1.820, 24.93, 24.93
17.45, 377.91, 1.820, 24.93, 24.93
17.39, 378.15, 1.820, 24.93, 24.93
17.33, 378.39, 1.820, 24.93, 24.93
17.27, 378.63, 1.820, 24.93, 24.93
17.21, 378.87, 1.820, 24.93, 24.93
17.15, 379.11, 1.820, 24.93, 24.93
17.09, 379.36, 1.820, 24.93, 24.93
17.02, 379.60, 1.820, 24.93, 24.93
16.96, 379.84, 1.820, 24.93, 24.93
16.90, 380.08, 1.820, 24.93, 24.93
16.84, 380.32, 1.820, 24.93, 24.93
16.78, 380.56, 1.820, 24.93, 24.93
16.72, 380.81, 1.820, 24.93, 24.93
16.66, 381.05, 1.820, 24.93, 24.93
16.59, 381.29, 1.820, 24.93, 24.93
16.53, 381.53, 1.820, 24.93, 24.93
16.47, 381.77, 1.820, 24.93, 24.93
16.41, 382.01, 1.820, 24.93, 24.93
16.35, 382.25, 1.820, 24.93, 24.93
16.29, 382.50, 1.820, 24.93, 24.93
16.23, 382.74, 1.820, 24.93, 24.93
16.16, 382.98, 1.820, 24.93, 24.93
16.10, 383.22, 1.820, 24.93, 24.93
16.04, 383.46, 1.820, 24.93, 24.93
15.98, 383.70, 1.820, 24.93, 24.93
15.92, 383.95, 1.820, 24.93, 24.93
15.86, 384.19, 1.820, 24.93, 24.93
15.79, 384.43, 1.820, 24.93, 24.93
15.73, 384.67, 1.820, 24.93, 24.93
15.67, 384.91, 1.820, 24.93, 24.93
15.61, 385.15, 1.820, 24.93, 24.93
15.55, 385.39, 1.820, 24.93, 24.93
15.49, 385.64, 1.820, 24.93, 24.93
15.43, 385.88, 1.820, 24.93, 24.93
15.36, 386.12, 1.820, 24.93, 24.93
15.30, 386.36, 1.820, 24.93, 24.93
15.24, 386.60, 1.820, 24.93, 24.93
15.18, 386.84, 1.820, 24.93, 24.93
15.12, 387.09, 1.820, 24.93, 24.93
15.06, 387.33, 1.820, 24.93, 24.93
15.00, 387.57, 1.820, 24.93, 24.93
